-13156.668818 4768.631767
-12927.636774 4849.402522
-12698.604731 4930.173276
-12469.572687 5010.944031
-12240.540643 5091.714785
-12011.508599 5172.485539
-11782.476556 5253.256294
-11553.444512 5334.027048
-11324.412468 5414.797802
-11095.380424 5495.568557
-10866.348380 5576.339311
-10637.316337 5657.110065
-10408.284293 5737.880820
-10179.252249 5818.651574
-9950.220205 5899.422328
-9721.188162 5980.193083
-9492.156118 6060.963837
-9263.124074 6141.734592
-9034.092030 6222.505346
-8805.059986 6303.276100
-8576.027943 6384.046855
-8346.995899 6464.817609
-8117.963855 6545.588363
-7888.931811 6626.359118
-7659.899768 6707.129872
-7430.867724 6787.900626
-7201.835680 6868.671381
-6972.803636 6949.442135
-6743.771592 7030.212889
-6514.739549 7110.983644
-6285.707505 7191.754398
-6056.675461 7272.525152
-5827.643417 7353.295907
-5598.611374 7434.066661
-5369.579330 7514.837416
-5140.547286 7595.608170
-4911.515242 7676.378924
-4682.483198 7757.149679
-4453.451155 7837.920433
-4224.419111 7918.691187
-3995.387067 7999.461942
-3766.355023 8080.232696
-3537.322980 8161.003450
-3308.290936 8241.774205
-3079.258892 8322.544959
-2850.226848 8403.315713
-2621.194804 8484.086468
-2392.162761 8564.857222
-2163.130717 8645.627977
-1934.098673 8726.398731
-7203.389100 -12112.377106
-6974.357056 -12031.606352
-6745.325013 -11950.835598
-6516.292969 -11870.064843
-6287.260925 -11789.294089
-6058.228881 -11708.523335
-5829.196838 -11627.752580
-5600.164794 -11546.981826
-5371.132750 -11466.211072
-5142.100706 -11385.440317
-4913.068662 -11304.669563
-4684.036619 -11223.898808
-4455.004575 -11143.128054
-4225.972531 -11062.357300
-3996.940487 -10981.586545
-3767.908444 -10900.815791
-3538.876400 -10820.045037
-3309.844356 -10739.274282
-3080.812312 -10658.503528
-2851.780268 -10577.732774
-2622.748225 -10496.962019
-2393.716181 -10416.191265
-2164.684137 -10335.420511
-1935.652093 -10254.649756
-1706.620050 -10173.879002
-1477.588006 -10093.108247
-1248.555962 -10012.337493
-1019.523918 -9931.566739
-790.491874 -9850.795984
-561.459831 -9770.025230
-332.427787 -9689.254476
-103.395743 -9608.483721
125.636301 -9527.712967
354.668344 -9446.942213
583.700388 -9366.171458
812.732432 -9285.400704
1041.764476 -9204.629950
1270.796520 -9123.859195
1499.828563 -9043.088441
1728.860607 -8962.317687
1957.892651 -8881.546932
2186.924695 -8800.776178
2415.956739 -8720.005423
2644.988782 -8639.234669
2874.020826 -8558.463915
3103.052870 -8477.693160
3332.084914 -8396.922406
3561.116957 -8316.151652
3790.149001 -8235.380897
4019.181045 -8154.610143
-13156.668818 4768.631767
-13035.173314 4424.121382
-12913.677809 4079.610997
-12792.182305 3735.100612
-12670.686800 3390.590227
-12549.191296 3046.079842
-12427.695792 2701.569456
-12306.200287 2357.059071
-12184.704783 2012.548686
-12063.209278 1668.038301
-11941.713774 1323.527916
-11820.218269 979.017531
-11698.722765 634.507145
-11577.227260 289.996760
-11455.731756 -54.513625
-11334.236252 -399.024010
-11212.740747 -743.534395
-11091.245243 -1088.044781
-10969.749738 -1432.555166
-10848.254234 -1777.065551
-10726.758729 -2121.575936
-10605.263225 -2466.086321
-10483.767720 -2810.596706
-10362.272216 -3155.107092
-10240.776711 -3499.617477
-10119.281207 -3844.127862
-9997.785703 -4188.638247
-9876.290198 -4533.148632
-9754.794694 -4877.659018
-9633.299189 -5222.169403
-9511.803685 -5566.679788
-9390.308180 -5911.190173
-9268.812676 -6255.700558
-9147.317171 -6600.210943
-9025.821667 -6944.721329
-8904.326163 -7289.231714
-8782.830658 -7633.742099
-8661.335154 -7978.252484
-8539.839649 -8322.762869
-8418.344145 -8667.273255
-8296.848640 -9011.783640
-8175.353136 -9356.294025
-8053.857631 -9700.804410
-7932.362127 -10045.314795
-7810.866622 -10389.825180
-7689.371118 -10734.335566
-7567.875614 -11078.845951
-7446.380109 -11423.356336
-7324.884605 -11767.866721
-7203.389100 -12112.377106
-1934.098673 8726.398731
-1812.603169 8381.888346
-1691.107664 8037.377961
-1569.612160 7692.867575
-1448.116655 7348.357190
-1326.621151 7003.846805
-1205.125646 6659.336420
-1083.630142 6314.826035
-962.134637 5970.315649
-840.639133 5625.805264
-719.143629 5281.294879
-597.648124 4936.784494
-476.152620 4592.274109
-354.657115 4247.763724
-233.161611 3903.253338
-111.666106 3558.742953
9.829398 3214.232568
131.324903 2869.722183
252.820407 2525.211798
374.315911 2180.701412
495.811416 1836.191027
617.306920 1491.680642
738.802425 1147.170257
860.297929 802.659872
981.793434 458.149487
1103.288938 113.639101
1224.784443 -230.871284
1346.279947 -575.381669
1467.775452 -919.892054
1589.270956 -1264.402439
1710.766460 -1608.912825
1832.261965 -1953.423210
1953.757469 -2297.933595
2075.252974 -2642.443980
2196.748478 -2986.954365
2318.243983 -3331.464750
2439.739487 -3675.975136
2561.234992 -4020.485521
2682.730496 -4364.995906
2804.226000 -4709.506291
2925.721505 -5054.016676
3047.217009 -5398.527062
3168.712514 -5743.037447
3290.208018 -6087.547832
3411.703523 -6432.058217
3533.199027 -6776.568602
3654.694532 -7121.078987
3776.190036 -7465.589373
3897.685541 -7810.099758
4019.181045 -8154.610143
-9840.664610 3679.484813
-9718.065104 3722.720923
-9595.465598 3765.957033
-9472.866092 3809.193142
-9350.266586 3852.429252
-9227.667081 3895.665362
-9105.067575 3938.901471
-8982.468069 3982.137581
-8859.868563 4025.373691
-8737.269057 4068.609800
-8614.669552 4111.845910
-8492.070046 4155.082020
-8369.470540 4198.318129
-8246.871034 4241.554239
-8124.271529 4284.790349
-8001.672023 4328.026459
-7879.072517 4371.262568
-7756.473011 4414.498678
-7633.873505 4457.734788
-7511.274000 4500.970897
-7388.674494 4544.207007
-7266.074988 4587.443117
-7143.475482 4630.679226
-7020.875976 4673.915336
-6898.276471 4717.151446
-6775.676965 4760.387555
-6653.077459 4803.623665
-6530.477953 4846.859775
-6407.878448 4890.095884
-6285.278942 4933.331994
-6162.679436 4976.568104
-6040.079930 5019.804213
-5917.480424 5063.040323
-5794.880919 5106.276433
-5672.281413 5149.512543
-5549.681907 5192.748652
-5427.082401 5235.984762
-5304.482895 5279.220872
-5181.883390 5322.456981
-5059.283884 5365.693091
-4936.684378 5408.929201
-4814.084872 5452.165310
-4691.485366 5495.401420
-4568.885861 5538.637530
-4446.286355 5581.873639
-4323.686849 5625.109749
-4201.087343 5668.345859
-4078.487838 5711.581968
-3955.888332 5754.818078
-3833.288826 5798.054188
-10549.071637 5688.230562
-10534.614351 5647.235751
-10520.157065 5606.240940
-10505.699779 5565.246128
-10491.242492 5524.251317
-10476.785206 5483.256506
-10462.327920 5442.261695
-10447.870633 5401.266884
-10433.413347 5360.272072
-10418.956061 5319.277261
-10404.498775 5278.282450
-10390.041488 5237.287639
-10375.584202 5196.292828
-10361.126916 5155.298016
-10346.669629 5114.303205
-10332.212343 5073.308394
-10317.755057 5032.313583
-10303.297771 4991.318772
-10288.840484 4950.323960
-10274.383198 4909.329149
-10259.925912 4868.334338
-10245.468626 4827.339527
-10231.011339 4786.344716
-10216.554053 4745.349904
-10202.096767 4704.355093
-10187.639480 4663.360282
-10173.182194 4622.365471
-10158.724908 4581.370660
-10144.267622 4540.375848
-10129.810335 4499.381037
-10115.353049 4458.386226
-10100.895763 4417.391415
-10086.438476 4376.396604
-10071.981190 4335.401792
-10057.523904 4294.406981
-10043.066618 4253.412170
-10028.609331 4212.417359
-10014.152045 4171.422548
-9999.694759 4130.427736
-9985.237472 4089.432925
-9970.780186 4048.438114
-9956.322900 4007.443303
-9941.865614 3966.448492
-9927.408327 3925.453680
-9912.951041 3884.458869
-9898.493755 3843.464058
-9884.036468 3802.469247
-9869.579182 3761.474436
-9855.121896 3720.479624
-9840.664610 3679.484813
-4541.695854 7806.799936
-4527.238568 7765.805125
-4512.781281 7724.810314
-4498.323995 7683.815503
-4483.866709 7642.820692
-4469.409422 7601.825880
-4454.952136 7560.831069
-4440.494850 7519.836258
-4426.037564 7478.841447
-4411.580277 7437.846636
-4397.122991 7396.851824
-4382.665705 7355.857013
-4368.208418 7314.862202
-4353.751132 7273.867391
-4339.293846 7232.872580
-4324.836560 7191.877768
-4310.379273 7150.882957
-4295.921987 7109.888146
-4281.464701 7068.893335
-4267.007414 7027.898524
-4252.550128 6986.903712
-4238.092842 6945.908901
-4223.635556 6904.914090
-4209.178269 6863.919279
-4194.720983 6822.924468
-4180.263697 6781.929657
-4165.806410 6740.934845
-4151.349124 6699.940034
-4136.891838 6658.945223
-4122.434552 6617.950412
-4107.977265 6576.955601
-4093.519979 6535.960789
-4079.062693 6494.965978
-4064.605407 6453.971167
-4050.148120 6412.976356
-4035.690834 6371.981545
-4021.233548 6330.986733
-4006.776261 6289.991922
-3992.318975 6248.997111
-3977.861689 6208.002300
-3963.404403 6167.007489
-3948.947116 6126.012677
-3934.489830 6085.017866
-3920.032544 6044.023055
-3905.575257 6003.028244
-3891.117971 5962.033433
-3876.660685 5921.038621
-3862.203399 5880.043810
-3847.746112 5839.048999
-3833.288826 5798.054188
-5304.198947 -9184.032563
-5181.599442 -9140.796454
-5058.999936 -9097.560344
-4936.400430 -9054.324234
-4813.800924 -9011.088125
-4691.201418 -8967.852015
-4568.601913 -8924.615905
-4446.002407 -8881.379795
-4323.402901 -8838.143686
-4200.803395 -8794.907576
-4078.203889 -8751.671466
-3955.604384 -8708.435357
-3833.004878 -8665.199247
-3710.405372 -8621.963137
-3587.805866 -8578.727028
-3465.206361 -8535.490918
-3342.606855 -8492.254808
-3220.007349 -8449.018699
-3097.407843 -8405.782589
-2974.808337 -8362.546479
-2852.208832 -8319.310370
-2729.609326 -8276.074260
-2607.009820 -8232.838150
-2484.410314 -8189.602041
-2361.810808 -8146.365931
-2239.211303 -8103.129821
-2116.611797 -8059.893711
-1994.012291 -8016.657602
-1871.412785 -7973.421492
-1748.813279 -7930.185382
-1626.213774 -7886.949273
-1503.614268 -7843.713163
-1381.014762 -7800.477053
-1258.415256 -7757.240944
-1135.815751 -7714.004834
-1013.216245 -7670.768724
-890.616739 -7627.532615
-768.017233 -7584.296505
-645.417727 -7541.060395
-522.818222 -7497.824286
-400.218716 -7454.588176
-277.619210 -7411.352066
-155.019704 -7368.115957
-32.420198 -7324.879847
90.179307 -7281.643737
212.778813 -7238.407627
335.378319 -7195.171518
457.977825 -7151.935408
580.577330 -7108.699298
703.176836 -7065.463189
-4595.791919 -11192.778312
-4610.249206 -11151.783501
-4624.706492 -11110.788690
-4639.163778 -11069.793878
-4653.621065 -11028.799067
-4668.078351 -10987.804256
-4682.535637 -10946.809445
-4696.992923 -10905.814634
-4711.450210 -10864.819822
-4725.907496 -10823.825011
-4740.364782 -10782.830200
-4754.822069 -10741.835389
-4769.279355 -10700.840578
-4783.736641 -10659.845766
-4798.193927 -10618.850955
-4812.651214 -10577.856144
-4827.108500 -10536.861333
-4841.565786 -10495.866522
-4856.023073 -10454.871710
-4870.480359 -10413.876899
-4884.937645 -10372.882088
-4899.394931 -10331.887277
-4913.852218 -10290.892466
-4928.309504 -10249.897654
-4942.766790 -10208.902843
-4957.224077 -10167.908032
-4971.681363 -10126.913221
-4986.138649 -10085.918410
-5000.595935 -10044.923598
-5015.053222 -10003.928787
-5029.510508 -9962.933976
-5043.967794 -9921.939165
-5058.425081 -9880.944354
-5072.882367 -9839.949542
-5087.339653 -9798.954731
-5101.796939 -9757.959920
-5116.254226 -9716.965109
-5130.711512 -9675.970298
-5145.168798 -9634.975486
-5159.626084 -9593.980675
-5174.083371 -9552.985864
-5188.540657 -9511.991053
-5202.997943 -9470.996242
-5217.455230 -9430.001430
-5231.912516 -9389.006619
-5246.369802 -9348.011808
-5260.827088 -9307.016997
-5275.284375 -9266.022186
-5289.741661 -9225.027374
-5304.198947 -9184.032563
1411.583864 -9074.208937
1397.126578 -9033.214126
1382.669292 -8992.219315
1368.212005 -8951.224504
1353.754719 -8910.229693
1339.297433 -8869.234881
1324.840146 -8828.240070
1310.382860 -8787.245259
1295.925574 -8746.250448
1281.468288 -8705.255637
1267.011001 -8664.260825
1252.553715 -8623.266014
1238.096429 -8582.271203
1223.639142 -8541.276392
1209.181856 -8500.281581
1194.724570 -8459.286769
1180.267284 -8418.291958
1165.809997 -8377.297147
1151.352711 -8336.302336
1136.895425 -8295.307525
1122.438138 -8254.312713
1107.980852 -8213.317902
1093.523566 -8172.323091
1079.066280 -8131.328280
1064.608993 -8090.333469
1050.151707 -8049.338657
1035.694421 -8008.343846
1021.237135 -7967.349035
1006.779848 -7926.354224
992.322562 -7885.359413
977.865276 -7844.364601
963.407989 -7803.369790
948.950703 -7762.374979
934.493417 -7721.380168
920.036131 -7680.385357
905.578844 -7639.390545
891.121558 -7598.395734
876.664272 -7557.400923
862.206985 -7516.406112
847.749699 -7475.411301
833.292413 -7434.416489
818.835127 -7393.421678
804.377840 -7352.426867
789.920554 -7311.432056
775.463268 -7270.437245
761.005981 -7229.442434
746.548695 -7188.447622
732.091409 -7147.452811
717.634123 -7106.458000
703.176836 -7065.463189
1042.541186 285.894294
813.509142 205.123540
584.477098 124.352785
355.445055 43.582031
126.413011 -37.188723
-102.619033 -117.959478
-331.651077 -198.730232
-560.683121 -279.500987
-789.715164 -360.271741
-1018.747208 -441.042495
-1247.779252 -521.813250
-1476.811296 -602.584004
-1705.843339 -683.354758
-1934.875383 -764.125513
-2163.907427 -844.896267
-2392.939471 -925.667021
-2621.971515 -1006.437776
-2851.003558 -1087.208530
-3080.035602 -1167.979284
-3309.067646 -1248.750039
-3538.099690 -1329.520793
-3767.131733 -1410.291547
-3996.163777 -1491.062302
-4225.195821 -1571.833056
-4454.227865 -1652.603811
-4683.259909 -1733.374565
-4912.291952 -1814.145319
-5141.323996 -1894.916074
-5370.356040 -1975.686828
-5599.388084 -2056.457582
-5828.420127 -2137.228337
-6057.452171 -2217.999091
-6286.484215 -2298.769845
-6515.516259 -2379.540600
-6744.548303 -2460.311354
-6973.580346 -2541.082108
-7202.612390 -2621.852863
-7431.644434 -2702.623617
-7660.676478 -2783.394372
-7889.708521 -2864.165126
-8118.740565 -2944.935880
-8347.772609 -3025.706635
-8576.804653 -3106.477389
-8805.836697 -3187.248143
-9034.868740 -3268.018898
-9263.900784 -3348.789652
-9492.932828 -3429.560406
-9721.964872 -3510.331161
-9950.996915 -3591.101915
-10180.028959 -3671.872669
-8921.607261 5583.541953
-8856.746926 5606.415687
-8791.886591 5629.289422
-8727.026256 5652.163157
-8662.165921 5675.036891
-8597.305586 5697.910626
-8532.445251 5720.784361
-8467.584916 5743.658095
-8402.724581 5766.531830
-8337.864246 5789.405565
-8273.003911 5812.279299
-8208.143576 5835.153034
-8143.283240 5858.026769
-8078.422905 5880.900503
-8013.562570 5903.774238
-7948.702235 5926.647972
-7883.841900 5949.521707
-7818.981565 5972.395442
-7754.121230 5995.269176
-7689.260895 6018.142911
-7624.400560 6041.016646
-7559.540225 6063.890380
-7494.679890 6086.764115
-7429.819554 6109.637850
-7364.959219 6132.511584
-7300.098884 6155.385319
-7235.238549 6178.259053
-7170.378214 6201.132788
-7105.517879 6224.006523
-7040.657544 6246.880257
-6975.797209 6269.753992
-6910.936874 6292.627727
-6846.076539 6315.501461
-6781.216204 6338.375196
-6716.355869 6361.248931
-6651.495533 6384.122665
-6586.635198 6406.996400
-6521.774863 6429.870134
-6456.914528 6452.743869
-6392.054193 6475.617604
-6327.193858 6498.491338
-6262.333523 6521.365073
-6197.473188 6544.238808
-6132.612853 6567.112542
-6067.752518 6589.986277
-6002.892183 6612.860012
-5938.031847 6635.733746
-5873.171512 6658.607481
-5808.311177 6681.481215
-5743.450842 6704.354950
-9134.461955 6187.108751
-9130.117982 6174.791061
-9125.774009 6162.473371
-9121.430035 6150.155681
-9117.086062 6137.837992
-9112.742089 6125.520302
-9108.398115 6113.202612
-9104.054142 6100.884922
-9099.710169 6088.567233
-9095.366195 6076.249543
-9091.022222 6063.931853
-9086.678249 6051.614163
-9082.334275 6039.296474
-9077.990302 6026.978784
-9073.646328 6014.661094
-9069.302355 6002.343404
-9064.958382 5990.025715
-9060.614408 5977.708025
-9056.270435 5965.390335
-9051.926462 5953.072645
-9047.582488 5940.754956
-9043.238515 5928.437266
-9038.894542 5916.119576
-9034.550568 5903.801886
-9030.206595 5891.484197
-9025.862622 5879.166507
-9021.518648 5866.848817
-9017.174675 5854.531127
-9012.830702 5842.213438
-9008.486728 5829.895748
-9004.142755 5817.578058
-8999.798782 5805.260368
-8995.454808 5792.942679
-8991.110835 5780.624989
-8986.766862 5768.307299
-8982.422888 5755.989609
-8978.078915 5743.671920
-8973.734942 5731.354230
-8969.390968 5719.036540
-8965.046995 5706.718850
-8960.703022 5694.401161
-8956.359048 5682.083471
-8952.015075 5669.765781
-8947.671102 5657.448091
-8943.327128 5645.130402
-8938.983155 5632.812712
-8934.639182 5620.495022
-8930.295208 5608.177332
-8925.951235 5595.859643
-8921.607261 5583.541953
-5956.305536 7307.921748
-5951.961563 7295.604058
-5947.617589 7283.286368
-5943.273616 7270.968679
-5938.929643 7258.650989
-5934.585669 7246.333299
-5930.241696 7234.015609
-5925.897723 7221.697920
-5921.553749 7209.380230
-5917.209776 7197.062540
-5912.865803 7184.744850
-5908.521829 7172.427161
-5904.177856 7160.109471
-5899.833883 7147.791781
-5895.489909 7135.474091
-5891.145936 7123.156402
-5886.801963 7110.838712
-5882.457989 7098.521022
-5878.114016 7086.203332
-5873.770043 7073.885643
-5869.426069 7061.567953
-5865.082096 7049.250263
-5860.738122 7036.932573
-5856.394149 7024.614884
-5852.050176 7012.297194
-5847.706202 6999.979504
-5843.362229 6987.661814
-5839.018256 6975.344125
-5834.674282 6963.026435
-5830.330309 6950.708745
-5825.986336 6938.391055
-5821.642362 6926.073366
-5817.298389 6913.755676
-5812.954416 6901.437986
-5808.610442 6889.120296
-5804.266469 6876.802607
-5799.922496 6864.484917
-5795.578522 6852.167227
-5791.234549 6839.849537
-5786.890576 6827.531848
-5782.546602 6815.214158
-5778.202629 6802.896468
-5773.858656 6790.578778
-5769.514682 6778.261089
-5765.170709 6765.943399
-5760.826736 6753.625709
-5756.482762 6741.308019
-5752.138789 6728.990330
-5747.794816 6716.672640
-5743.450842 6704.354950
-3394.036931 -10090.333326
-3329.176596 -10067.459591
-3264.316261 -10044.585856
-3199.455926 -10021.712122
-3134.595591 -9998.838387
-3069.735256 -9975.964652
-3004.874921 -9953.090918
-2940.014585 -9930.217183
-2875.154250 -9907.343448
-2810.293915 -9884.469714
-2745.433580 -9861.595979
-2680.573245 -9838.722245
-2615.712910 -9815.848510
-2550.852575 -9792.974775
-2485.992240 -9770.101041
-2421.131905 -9747.227306
-2356.271570 -9724.353571
-2291.411235 -9701.479837
-2226.550900 -9678.606102
-2161.690564 -9655.732367
-2096.830229 -9632.858633
-2031.969894 -9609.984898
-1967.109559 -9587.111164
-1902.249224 -9564.237429
-1837.388889 -9541.363694
-1772.528554 -9518.489960
-1707.668219 -9495.616225
-1642.807884 -9472.742490
-1577.947549 -9449.868756
-1513.087214 -9426.995021
-1448.226878 -9404.121286
-1383.366543 -9381.247552
-1318.506208 -9358.373817
-1253.645873 -9335.500083
-1188.785538 -9312.626348
-1123.925203 -9289.752613
-1059.064868 -9266.878879
-994.204533 -9244.005144
-929.344198 -9221.131409
-864.483863 -9198.257675
-799.623528 -9175.383940
-734.763193 -9152.510205
-669.902857 -9129.636471
-605.042522 -9106.762736
-540.182187 -9083.889002
-475.321852 -9061.015267
-410.461517 -9038.141532
-345.601182 -9015.267798
-280.740847 -8992.394063
-215.880512 -8969.520328
-3181.182237 -10693.900123
-3185.526211 -10681.582434
-3189.870184 -10669.264744
-3194.214157 -10656.947054
-3198.558131 -10644.629364
-3202.902104 -10632.311675
-3207.246077 -10619.993985
-3211.590051 -10607.676295
-3215.934024 -10595.358605
-3220.277997 -10583.040916
-3224.621971 -10570.723226
-3228.965944 -10558.405536
-3233.309917 -10546.087846
-3237.653891 -10533.770157
-3241.997864 -10521.452467
-3246.341837 -10509.134777
-3250.685811 -10496.817087
-3255.029784 -10484.499398
-3259.373757 -10472.181708
-3263.717731 -10459.864018
-3268.061704 -10447.546328
-3272.405677 -10435.228639
-3276.749651 -10422.910949
-3281.093624 -10410.593259
-3285.437598 -10398.275569
-3289.781571 -10385.957880
-3294.125544 -10373.640190
-3298.469518 -10361.322500
-3302.813491 -10349.004810
-3307.157464 -10336.687121
-3311.501438 -10324.369431
-3315.845411 -10312.051741
-3320.189384 -10299.734051
-3324.533358 -10287.416362
-3328.877331 -10275.098672
-3333.221304 -10262.780982
-3337.565278 -10250.463292
-3341.909251 -10238.145603
-3346.253224 -10225.827913
-3350.597198 -10213.510223
-3354.941171 -10201.192533
-3359.285144 -10188.874844
-3363.629118 -10176.557154
-3367.973091 -10164.239464
-3372.317064 -10151.921774
-3376.661038 -10139.604085
-3381.005011 -10127.286395
-3385.348984 -10114.968705
-3389.692958 -10102.651015
-3394.036931 -10090.333326
-3.025818 -9573.087126
-7.369791 -9560.769436
-11.713765 -9548.451747
-16.057738 -9536.134057
-20.401711 -9523.816367
-24.745685 -9511.498677
-29.089658 -9499.180988
-33.433631 -9486.863298
-37.777605 -9474.545608
-42.121578 -9462.227918
-46.465551 -9449.910229
-50.809525 -9437.592539
-55.153498 -9425.274849
-59.497471 -9412.957159
-63.841445 -9400.639470
-68.185418 -9388.321780
-72.529391 -9376.004090
-76.873365 -9363.686400
-81.217338 -9351.368711
-85.561312 -9339.051021
-89.905285 -9326.733331
-94.249258 -9314.415641
-98.593232 -9302.097952
-102.937205 -9289.780262
-107.281178 -9277.462572
-111.625152 -9265.144882
-115.969125 -9252.827193
-120.313098 -9240.509503
-124.657072 -9228.191813
-129.001045 -9215.874123
-133.345018 -9203.556434
-137.688992 -9191.238744
-142.032965 -9178.921054
-146.376938 -9166.603364
-150.720912 -9154.285675
-155.064885 -9141.967985
-159.408858 -9129.650295
-163.752832 -9117.332605
-168.096805 -9105.014916
-172.440778 -9092.697226
-176.784752 -9080.379536
-181.128725 -9068.061846
-185.472698 -9055.744157
-189.816672 -9043.426467
-194.160645 -9031.108777
-198.504618 -9018.791087
-202.848592 -9006.473398
-207.192565 -8994.155708
-211.536538 -8981.838018
-215.880512 -8969.520328
-5217.285532 146.003399
-5447.126166 47.971631
-5662.543788 -78.646667
-5860.001246 -231.772423
-6036.256293 -408.891319
-6188.414827 -607.095066
-6313.978409 -823.129164
-6410.885289 -1053.446340
-6477.544258 -1294.264792
-6512.860777 -1541.630287
-6516.254951 -1791.481092
-6487.671047 -2039.714662
-6427.578412 -2282.255009
-6336.963765 -2515.119628
-6217.314997 -2734.484888
-6070.596737 -2936.748817
-5899.218095 -3118.590247
-5705.993103 -3277.023348
-5494.094510 -3409.446651
-5267.001686 -3513.685770
-5028.443487 -3588.029102
-4782.337035 -3631.255931
-4532.723388 -3642.656473
-4283.701197 -3622.043533
-4039.359399 -3569.755573
-3803.710080 -3486.651161
-3580.622595 -3374.094869
-3373.760034 -3233.934869
-3186.519075 -3068.472583
-3021.974209 -2880.424897
-2882.827258 -2672.879550
-2771.363012 -2449.244431
-2689.411710 -2213.191621
-2638.318991 -1968.597102
-2618.923795 -1719.477108
-2631.544591 -1469.922184
-2675.974146 -1224.030013
-2751.482927 -985.838139
-2856.831084 -759.257666
-2990.288801 -548.009039
-3149.664707 -355.560953
-3332.341854 -185.073403
-3535.320688 -39.345788
-3755.268303 79.229048
-3988.573164 168.704109
-4231.404412 227.610218
-4479.774765 254.980138
-4729.605989 250.364456
-4976.795862 213.838960
-5217.285532 146.003399
