2047.714777 3876.828194
-5859.381928 -3792.911652
3266.581943 4445.134636
7856.202305 -2716.297693
-8622.534828 6188.429222
8651.985784 -1876.434139
-2166.045018 2433.936276
-4894.420835 2533.629905
-4981.708204 -4413.397445
186.753889 -1741.386937
2933.329598 6106.259657
-2408.327851 -4343.001029
-8045.620647 4336.570779
6666.346459 3248.740600
7351.870196 3813.518423
-2798.501269 3268.842047
-2327.197881 -4659.569632
-7608.266151 -1550.206075
3100.531008 1499.580389
-6955.730096 -4822.952677
640.129001 3629.161181
4465.992188 -4464.618152
-6715.201241 -3506.073514
-1933.755543 -5406.027524
8317.998177 6061.915625
-713.479716 -2298.172549
-3044.151813 2563.422548
7641.175759 3820.478985
-6311.434267 -513.285565
1619.815272 1189.152623
-2450.269546 -4823.933938
-7023.973944 4674.282953
-8510.679851 -6359.108377
5806.194696 -1228.973271
-3467.148035 -2001.609436
2296.757155 3961.412345
3399.896034 -4566.342067
7126.223599 -5800.936396
-868.681009 -3658.740737
2783.474031 3896.847465
8819.442600 -4225.558739
-8177.445732 -2569.699685
-3365.518780 -1928.576409
5759.602792 -4415.618130
-2485.734577 -332.084249
7600.339329 -5214.456356
4869.323222 3556.107610
-3555.980789 1970.037997
3066.161156 -5072.871269
-513.719936 3276.960219
7098.645830 2846.579765
-1806.612546 3715.148551
5586.497117 -5031.951575
-5787.226423 5349.205886
9388.461307 -2797.406603
-6718.441557 -4059.873416
-7571.414699 5713.632910
-5664.609938 -3163.465094
-2806.851525 5379.311574
4140.426274 -1421.322674
7347.038720 -3026.215209
-5087.283739 2190.700037
7063.484970 -446.293994
6938.664987 2053.694320
-9105.549009 2011.691714
2713.694964 3876.088753
-2556.845957 5158.297768
6832.724272 -5158.023301
-9241.370777 -623.810849
-4397.812086 -4247.805615
-4203.125651 -5683.160145
-9287.868862 -2705.433167
520.512547 -4334.324384
-6493.500221 -6048.410193
3779.695645 -5813.308723
504.365549 2488.895783
730.848829 -5706.253051
-121.531309 5407.352411
3841.244344 5549.750134
6235.336954 -3901.931136
-2902.973441 -320.731178
-7025.040995 -210.070243
1512.521747 -6304.799780
-53.788124 -4286.871359
-8061.197015 4742.920912
-3671.243618 -1362.829592
-3052.369507 5586.003736
-4325.989365 -946.946212
-3706.713128 -4775.144517
5448.607687 5930.720389
-1069.600672 -2500.674188
-6464.299467 -845.543432
-6372.772438 -6263.187325
-3181.534614 150.100146
598.078975 1098.013300
5310.519319 5042.243847
4219.481391 -3491.119474
4218.119225 6.221124
2689.157094 3926.242322
-158.775779 1195.133277
726.508529 -5984.911626
-8308.115642 -3947.052532
-8200.517144 -1846.722603
-7880.183441 2431.753772
-4390.614744 -3610.033601
-3402.115425 -6435.393437
5039.680080 2894.570052
-6684.379414 -676.396197
8554.174789 -5290.939774
7346.587018 1050.689463
5378.194226 -4903.439643
9196.022973 -4124.058249
2325.032272 -3271.236618
-4272.256146 -2199.774516
-1199.630388 1253.456691
-5968.287479 5381.377908
6100.528974 2371.159550
3604.449453 4258.805347
-8332.515415 3647.369086
-5067.078732 2211.706251
9399.367179 -567.462776
5647.221620 -740.812181
5562.185151 -5603.885398
-6678.514676 -2069.869746
-5906.412465 3561.334910
-973.429250 5937.741875
3980.954287 3651.594978
3726.219520 -338.225243
-6969.514334 424.502337
2932.909834 3416.020028
4924.716230 3381.461112
9182.413391 785.913964
-2052.114344 -1867.673955
-8629.384090 23.974765
-8979.579290 2442.613876
1956.685312 -4671.790215
-7572.705717 4495.369060
-4178.072297 588.661743
-3993.793835 2281.691641
-7915.695566 -2166.481011
852.809544 -5255.166765
-660.084314 -5437.805251
6191.645850 -388.454717
-4616.967708 171.648206
-9008.181135 492.729013
1268.375198 -4621.755621
-8105.586205 -3340.427777
-2679.536353 257.872090
-7199.025819 3981.949314
-1646.569999 5029.172975
-539.247637 -838.750676
-3927.691552 5160.715592
3285.319876 2936.759579
-1688.028211 6235.495905
2823.749512 -6362.945187
1464.240588 952.771217
2710.015768 1870.386988
1092.029330 -6408.502910
-9113.499215 -4872.123707
-6526.084183 454.026929
2337.184242 -6364.030988
-5948.977710 -2594.836327
6147.843361 6097.524858
8225.533084 -1504.621387
1104.707388 -6027.300292
4155.786990 1422.102015
-9014.542805 -3178.204683
1271.012293 4017.148669
2484.379980 4246.823814
81.766419 6242.512387
-4402.523956 1387.733372
-665.681591 3777.320020
1182.209191 1523.467070
-2117.205762 687.719804
-5730.894164 -5008.273566
-9217.037143 4278.215967
-1857.259501 4575.432783
-1207.147435 -1007.050896
-496.237316 -5761.362979
2526.445055 744.445846
-3235.670346 4189.548549
-8871.831141 -2714.805559
-8859.728879 4542.099133
-9364.043686 -3352.977821
-2622.803780 -814.540505
4737.740349 -655.534110
4731.829282 4526.812580
-9380.521205 -2747.113454
-8157.281782 3364.184892
8738.048344 -1361.416108
6429.384974 2880.110481
-3296.087651 3274.733677
1962.652785 3677.617140
3.449609 3736.285736
8501.835921 -4503.881930
212.519093 5179.813864
7641.286132 1959.475120
-6576.405792 2006.897155
6080.455630 2889.228637
846.250362 2403.293374
6152.744830 341.603747
8147.415062 4541.893128
-3285.420524 -568.518469
1386.447270 5883.836032
-8304.187334 5236.676416
9161.781518 -1068.270870
-2682.683344 -2302.789865
1555.158606 -341.447786
-7681.840094 -2641.295537
-2539.916743 4386.303923
-8842.626304 2135.796420
-1475.639113 1246.730504
1239.213697 5454.300629
-107.796762 -49.394098
-5430.714175 732.668522
-7902.342313 535.947965
6665.059172 5154.910133
-4246.680471 -233.632412
-2768.082414 973.206889
-6506.428465 5689.612921
2726.329739 6104.169571
3009.577135 -1353.012687
497.226091 5942.799837
6601.929391 -580.775737
-7022.863381 2162.546340
-3525.316280 3218.884127
7857.089780 1318.051492
6415.640913 4869.523558
-4976.068674 -3469.802541
8112.416669 -1460.698159
-722.652732 -6049.869931
3021.467979 2454.285897
-857.806161 -3656.337571
-6195.895668 -5600.258786
-2156.353271 -3943.641722
-6493.366296 100.190023
-595.153233 -987.034413
3405.602575 -3058.104907
-2385.940276 -4.469234
2698.378129 -917.422942
6668.641038 5039.337892
-8767.777861 651.609681
2163.482335 -6383.877070
-6548.364694 -4162.821732
-6661.115700 815.381597
5844.515132 2833.401427
-5283.814511 -4022.814278
-5031.045447 4751.644622
-7093.858166 -3326.854302
-4790.335063 4964.895849
4823.095388 3066.507980
-3877.237092 3532.151662
468.244659 -1441.185798
8906.766712 539.295449
-309.741556 2442.819653
-5854.143503 -18.066850
-1801.755415 2825.520076
-8645.487523 5841.631914
8380.301096 -5450.207792
-2950.458242 -2269.801565
-6175.348875 -5427.847576
7432.976482 -1624.215744
-6354.014219 5145.379817
-1144.127130 4774.601535
7416.742073 -1886.809375
7722.240127 567.505377
2729.000718 5787.735808
1291.870633 6336.847499
-2633.547581 5606.735548
-1983.194183 -2857.069290
-3508.691071 -621.989950
8908.602812 -1998.688542
-1849.090432 114.444611
-5268.288441 5783.532443
1552.644091 4395.753216
2502.591454 3216.488535
-6023.931219 -1370.860181
-960.738439 5960.892791
3211.124353 -2286.607945
8847.798985 2809.783326
1708.950384 -6035.037563
-3932.326052 -6404.562634
-2503.267415 -1216.640231
-2985.629055 1637.543855
-5922.644269 -3752.714946
-2174.054605 4405.403036
-7044.003582 -6156.169071
6015.753393 -361.911181
9.728786 -4620.191390
-7231.776305 -5031.217486
-9209.220123 2585.208973
-2647.951533 6351.240398
-8464.994079 -1807.338949
-4664.361955 2604.850744
-1840.182317 5012.411011
-2025.713082 -2921.467535
-6948.714134 -1279.279504
-4430.184763 -3623.289099
-2628.254326 2833.351190
5273.529585 4347.376887
7841.972780 4511.718714
-7881.615804 -3745.613291
-4638.633363 -3073.307662
6271.829678 193.080209
-8768.515139 5387.082761
-957.023696 -2445.546809
3858.895433 -738.319948
9105.311048 2687.903156
4371.484691 -5555.984723
2318.540717 4493.408486
2344.278111 3395.866092
-3292.352754 4466.350543
-9073.677919 -5149.700800
-8052.964808 5581.071837
6234.157541 6046.212304
-484.955158 -1056.994352
-2034.357502 -4873.145094
3991.946928 -5108.408988
-4740.288485 4325.302785
128.665047 -542.201169
1917.031226 -5392.138338
865.589931 -1189.299736
3776.389629 -932.444982
-7265.563760 21.086975
-8574.632191 -2173.853116
7459.002029 3945.145745
-8440.374211 -3893.383979
2928.524992 5281.278210
8785.514857 -4404.156794
-2947.658952 2133.662212
1352.533160 -3007.887909
1178.063964 4032.911574
-1902.682351 160.447346
-3078.339141 1651.411764
-5527.076737 2248.885031
-8567.410259 889.949901
-3706.363421 1579.059573
3464.959218 -2872.105914
-6298.131312 -3325.643393
-274.150319 1112.462401
-4494.557095 -4414.380045
-7165.073530 2839.695359
-2128.052358 -4908.960855
-7907.171526 -560.049475
-4205.395815 2117.501324
5761.432308 2719.903846
-6841.642324 -6259.836267
3201.022796 2555.135898
-7368.625413 4706.411352
3959.124581 -1930.707126
8962.937799 1451.579301
109.845476 3011.132294
6615.437551 -4891.347893
3906.103645 -3838.306236
-5833.720012 -258.655755
-2828.665600 -2776.249582
-7969.731100 -995.941962
-1347.290713 -5261.116879
-8382.819457 -3840.496129
8059.197525 5311.763506
-2218.898727 4979.324226
9385.424963 -1395.701884
-3199.767466 -3330.403238
5372.841652 5785.667503
3674.913159 -4646.077907
-4370.629674 -126.754428
1018.802894 883.587843
6686.847443 6414.008468
6648.463183 -5757.598470
4055.518809 6193.123657
8083.864004 -1771.362782
4788.941653 -1815.437807
-3544.321763 2450.593922
9306.021406 -332.228442
7082.799615 -4273.954387
-4969.382934 -807.082578
7260.906069 6338.290826
8582.024281 4452.329551
-7255.005493 2540.169501
-368.808656 -1141.777984
4849.739355 -2074.220019
7913.576347 -5255.577310
-517.452220 -1224.717560
-4377.908787 -1322.988671
-9211.689718 -2938.696870
7497.484984 119.502080
-4329.050308 -1374.641403
-5411.026658 -1967.069280
-6545.734797 -468.898426
-6665.994182 5729.375031
-7162.607279 2589.514590
-804.472824 1540.844472
-6556.165863 -5262.337207
732.546146 -1800.433681
-1915.495144 -1637.777456
-1375.376582 -2970.446442
7432.272156 524.804935
-2823.746044 3281.564517
2893.416270 5263.840767
2882.222253 -5735.964786
-8251.809275 -4174.728484
5925.185698 1726.186891
2952.148790 3701.343523
7634.758247 -2248.664669
929.035466 2893.933884
-632.219940 -4494.815218
7431.609097 -5871.994540
4031.428629 -1349.313269
7199.262944 -5824.441853
230.106533 2592.789215
-7794.849260 3410.601932
-2575.865064 1004.776292
-4549.364564 -3430.265016
-4782.799965 -4669.239546
1795.919931 2414.864026
-3474.894586 -4466.651171
-3647.758550 -5844.283063
6398.277749 3357.326960
-7097.812366 1821.109598
-3431.763683 -4471.833568
1280.429617 -3342.127508
9326.160255 1349.742369
-8449.044611 4694.620530
7548.649183 -5019.830246
-8098.212254 2655.956374
8844.875971 -6165.797080
-9147.462760 -2205.537036
-7392.956283 -4288.458579
1834.649367 -2682.997178
-6921.229558 1424.687927
-2428.370805 -4151.368055
-2388.583639 -4235.893601
8573.317638 -3552.701828
5059.481790 -4850.449217
4154.667072 -3927.800432
-2662.091058 -4340.821600
-6573.012523 -4134.327929
9303.511766 -2730.313958
1748.910419 4971.907039
6312.446391 -6202.106793
-5125.773805 -1409.566225
6889.400589 3410.130657
-7467.895508 2811.760150
-5497.026643 -184.942761
-1430.792790 -3799.217623
-2923.274017 833.799597
-3999.364920 2797.457716
1143.175962 2697.473677
-9447.373641 -2558.825566
4381.173931 -4700.330416
-8052.945032 -1748.874442
1780.699097 -3496.585157
-4041.733454 -2143.720180
-5619.287278 554.341000
-4853.313203 6027.768149
-392.023489 -2417.482377
7159.457841 1302.792361
-796.331980 -4366.944687
-3302.349236 -4365.152093
-7973.944551 5075.172977
6617.652525 6028.718431
-9205.928848 794.116222
8316.727735 4485.472754
1608.939879 -5799.913801
4080.189372 -2662.492654
-8464.856731 3519.935758
8561.710547 1956.549841
1336.878639 -5036.978342
7514.159337 -840.962741
492.463026 166.503682
-3965.763887 -1766.685870
-1536.295224 -1600.097624
5220.269614 -2373.600916
-613.964891 5174.564398
3813.974636 1509.455551
7623.295387 2181.854925
-1559.276646 1575.562118
616.893608 -3961.965160
5844.982121 -5283.253237
-4772.384766 1502.872320
1495.966893 5246.081095
7147.092060 -2252.501359
4511.689823 -5139.460200
-1001.973273 891.484403
-5563.184487 -2955.326566
-4575.257040 -4202.124958
-7880.214412 1183.606855
1131.401238 -4845.338778
-6686.742086 5594.093464
-6286.993604 -4113.248526
3806.702124 3357.808243
1861.997624 1785.982183
7022.964047 -1584.610484
-743.670881 4181.502996
8521.032729 -6065.591183
-8352.735779 -2738.385665
6320.166891 -1666.944708
-5048.548741 5555.281540
6127.995983 -5458.685286
113.960374 -3299.807905
5751.807474 5748.417360
-9274.226628 569.304621
749.562867 -1087.243734
-6206.554451 4855.171380
-2406.543449 4221.114347
6513.570484 4970.040720
-172.917267 2833.805418
4324.716662 5837.970569
-7726.634148 3570.570996
-2131.987549 -2801.646527
6886.271667 -5325.809685
-7525.889607 -5205.837384
9028.620688 1755.769017
-5088.507641 3969.549313
-3629.247859 -4123.012095
-1606.784462 -6127.241765
5853.625529 204.735339
1421.767683 -3293.473930
-4320.956752 -2117.208343
-8611.289862 2877.625553
-8286.225244 1127.779224
-8989.060782 2441.060921
592.201149 2153.452819
-869.475422 5130.344429
-4667.761376 -3796.761258
7168.376016 1556.544586
-2063.799042 -898.123710
2305.880358 -6377.710853
5778.865457 -2876.935303
5033.152248 -2304.482346
-9267.298905 -1510.159893
-3020.680518 -1195.550580
5048.780770 5658.650205
6240.647820 -1384.801274
3798.366188 1879.266358
4765.392417 321.967449
6205.296991 5363.342706
-1504.837367 487.197547
-4590.293986 -2018.497458
-1327.707013 -5033.171326
-3299.064008 -4908.470573
5831.906707 -520.204895
9089.315506 -3524.211671
6051.783078 -5714.721895
1080.801782 3327.813757
-2.876241 130.383179
-8256.035461 -2084.255389
-8375.050341 3338.633399
-8388.153205 -6244.424407
-3166.300816 -700.637124
8129.216974 3497.620775
7762.174912 1028.128521
-3806.487767 781.947035
2365.430087 -1537.470870
-2941.546958 5650.219235
3954.819731 -801.743919
1872.906171 13.184264
-1801.086689 746.880063
4688.721508 1471.632637
-1228.803779 5760.506683
-5070.510312 4859.019850
-6653.696987 3707.012250
450.955678 -5341.066708
-7057.771547 2723.433192
5410.769159 -5734.289341
-5595.056044 3415.032063
-6959.854720 -1756.635159
-1928.329886 3464.051704
-1455.318928 214.290194
-681.115813 5825.582852
8516.572445 -4085.241653
-5511.318171 -2176.653882
-8582.880953 4581.141264
-1058.800404 6213.932113
-5237.293455 3456.996771
8312.441684 6088.149001
-7662.471262 -5112.228036
4731.932280 21.610296
8770.601952 5478.297382
5515.384558 -1436.591195
1249.979280 -2073.692542
-5346.396923 614.614103
2938.430868 1206.457263
-6052.025132 -5966.216035
-1602.334826 -3090.876641
3895.954817 -3867.305339
4947.663522 -2647.246041
-6024.302542 -5867.514491
-2471.030053 -6331.230625
-8053.797532 3883.238206
4348.591271 -1713.601338
1315.626006 1087.270603
4543.609715 -3357.133731
5033.498057 -1037.881044
5177.519486 4318.461853
936.443160 527.605611
-3834.786964 -2545.417706
-6646.025597 -207.243244
24.397366 4556.180688
5271.162997 5509.144278
-1036.844527 2027.230377
-933.052743 -3524.802667
-9378.779848 6026.391266
-6606.906770 3011.953425
-3126.233928 95.815926
5275.945231 -5715.024457
-1437.927627 -1882.418734
-2580.323755 31.405065
-2869.310881 -6401.942770
-2984.287061 3645.835149
-6859.867730 -3511.852386
-3796.073625 2301.302091
-8589.301659 2349.912671
-8851.120983 4290.436622
-1183.556711 -4293.342097
3361.056304 5757.699886
-771.327111 -1673.742786
816.956556 3015.083857
-7348.395236 -5393.334686
611.587469 -980.229024
7193.107130 787.639033
7294.755017 4646.668146
-7217.842872 5234.128918
-3451.076814 5642.887618
-4721.448769 -1614.936810
3598.560758 -5770.882513
-5904.605101 152.656125
-8715.733281 -5739.738612
-2030.849380 -4305.309964
4724.443951 2562.122753
7371.309700 1021.703810
-4577.096651 -449.336423
-3703.827853 1074.199400
-8837.663747 5168.702528
1764.488908 -4503.873616
-3373.603843 4402.286901
9374.003239 -6077.840396
-8680.617491 -5576.674216
6032.210239 -512.809508
3393.175512 -3738.189039
8767.991286 -5156.977663
5846.789820 -1831.027758
283.497490 2090.962761
-7061.187355 2508.906553
3311.614311 -2736.759754
1868.345758 1410.621750
1420.063299 1358.750945
-8254.560194 1883.885038
2011.431843 -448.892107
-3480.355834 -4582.915176
4231.664252 -5048.413193
3990.599204 5392.252874
-6358.795951 -864.248839
-5684.364078 766.210585
-6887.181990 -3423.481234
-5238.698464 4301.738886
-6590.352734 -1179.011566
-7396.749910 -363.076461
-6923.623262 -5440.194409
2248.177827 -1365.675375
-3506.902708 -4927.396606
-7367.555168 4246.345714
-4460.876194 6356.215145
-7940.693649 -3973.588909
1705.328738 -2224.363917
-2108.320150 650.016496
5594.755851 2601.839233
5838.559980 4003.263898
-607.525263 5727.616274
1738.710362 812.086849
6820.442365 4868.486588
-4944.337985 6289.837829
641.159131 -3204.887199
-4489.568804 -2174.725715
952.290863 5439.228821
-8071.647558 -2449.783351
-1343.038308 -5081.140475
-5791.818107 5353.908400
-1322.547129 -1510.751706
4626.206459 6125.987118
-875.913177 4331.209679
-4147.241793 -5493.497206
8252.819823 1394.119344
1615.475703 4779.810478
-1393.638205 -1020.213219
1788.296093 -79.432981
-3527.419859 5453.890078
4418.861214 -4949.255620
8780.389384 598.053489
-6816.458619 -2694.377029
7126.495057 3157.777469
-147.652320 -6122.879633
-7656.455920 5959.997389
8489.208090 612.623662
-6901.353964 6111.410284
-4872.813328 881.993325
3016.509840 4924.389300
-5988.628619 1490.437424
2300.331276 1033.401601
-1074.135756 2830.898099
-4923.319336 1245.013773
7023.222893 -5305.764801
1471.152927 -4081.599794
7411.629916 -4737.378399
-7994.914963 -2997.826343
3453.809163 126.285201
5336.154735 -4264.827137
5759.083427 -1902.303813
8380.777150 6117.763566
2428.688767 -1065.376712
1979.024745 2024.262471
-3294.128109 367.890789
-8088.011589 -5077.988965
5300.194137 6430.742571
-8764.035255 -5476.104155
-4424.337952 3331.257654
-8242.417870 523.395007
4604.305131 -1995.802019
-8715.307744 -2725.589050
7829.132889 5382.087417
171.168403 282.850332
3787.293863 4484.477178
9079.856941 5414.088316
-1057.598284 2581.681140
-8685.863731 3049.879300
7643.706662 -6419.906921
-4191.700459 -5595.684198
6074.424773 3996.936765
4103.453711 4498.393384
1645.717631 3392.087261
7077.080796 -2941.083518
6024.223843 6093.894840
-3939.630326 5841.257508
7006.671217 -1330.595295
-975.241631 -809.041963
-7530.283823 -2041.908850
245.353805 1547.089255
-662.174023 -756.874795
4956.216121 -4406.104808
-2868.698622 3167.162782
6641.770516 1547.551256
7116.648281 -790.676915
4711.806544 2970.369053
789.233737 1302.700195
-8800.876014 -5812.940924
-4472.557944 -4502.658454
-100.150023 2114.805254
5523.929896 -4787.154793
7553.986926 5045.659384
6724.713325 -3362.341268
1415.241989 -5279.069329
1246.741314 6028.325530
556.505162 2794.320467
-1025.609533 -3116.996189
4892.798952 -2673.943310
175.866878 723.358411
1917.300915 -5794.997954
-3524.599412 4425.303404
-625.409314 3131.199236
5268.324895 1271.082928
6352.320854 -4212.958260
253.659351 3087.992161
2446.564220 -2982.170988
-458.594857 2767.809813
7994.853321 -342.660750
-1518.332879 6227.375379
-8178.437288 1086.009331
-2290.106082 5130.330367
6034.486705 -1746.536313
-6598.442814 -4600.695512
4192.406748 6185.015547
-2201.194111 -91.851886
-9212.597110 -4871.974720
-2679.995704 1265.016092
8735.843853 271.820733
6784.045528 5685.498292
-3557.948621 -6346.609698
5959.711408 -1459.697977
-6389.044533 -3790.921337
-4700.229491 -1844.620401
8300.869841 -5433.136436
5679.495436 -485.538766
-1867.611385 -323.501873
-4333.945459 4297.294711
6704.883672 3809.854795
7791.674960 1990.235070
8552.295283 6011.793953
1454.045547 3629.533479
-7577.673652 5718.757052
9181.728374 -3939.336099
-9149.423508 -4723.663039
-8968.808426 5602.817979
527.232971 -2121.900909
-6564.735114 1370.009333
-2353.307530 -503.641493
-7193.630965 -1635.514145
5745.961702 -2248.233238
-62.966826 5194.210548
1439.477378 -6427.852427
6837.781027 6289.041543
83.501280 -6405.803080
-5180.955096 -6077.370730
-1706.782232 732.486695
-8156.577227 2701.794480
1139.664214 -5354.431300
6567.785927 -3814.369895
5461.833440 -6342.523025
3713.858131 64.499617
-2166.428601 -5402.999951
-9118.071281 5714.056941
6508.700601 -678.950128
5764.756859 2234.842425
3779.592946 -5380.104177
8135.597469 -4497.291809
5048.824960 2730.574242
-8225.840899 763.348758
4453.274851 -1958.733180
4388.467476 -5873.877636
2483.782524 -902.551120
611.546351 -675.996597
-1496.512679 -2683.550161
-3539.818081 -5198.874851
-5037.178273 3830.847318
3988.639715 2933.715426
7522.900779 -70.261188
-6237.702628 765.275976
2763.198546 -2645.187228
-6978.434014 -6099.884035
-7175.567127 2045.396100
-5838.723432 -3987.199248
-5580.121894 1441.371463
3133.738759 5475.305154
5671.903422 -4412.768911
-9122.410129 4759.635973
-2155.779120 3444.314277
-638.539338 5636.834706
-7452.904873 1072.827365
-7687.042276 2759.769228
-7077.093426 4312.159919
1660.513095 -6123.000519
-42.294020 -3481.655145
3773.185846 5107.245913
9421.709534 2528.545068
-7667.130026 2752.138155
7892.264660 -5169.266642
-5001.281483 844.904921
-7323.609336 2208.001595
-4071.444057 3411.290200
-306.318179 5030.893100
-2994.449178 -285.740825
-2074.290712 6135.391834
-8492.355450 2260.740897
2561.538517 2241.431525
-2299.787084 3458.311031
9262.307463 2395.094846
-2479.277090 5431.521770
3487.756655 -6017.132221
1576.607229 -2346.054355
-5741.159375 3894.871338
2708.889716 -4598.959060
-7261.968939 435.255216
6016.142784 1088.885623
-1573.036382 -3612.762691
3992.396993 1267.541363
4140.032781 1139.433753
6164.091861 5897.228754
-23.965114 1827.761075
6472.956992 -3546.141934
8517.815894 -1014.711031
8483.518174 -5615.786311
-1419.423088 -4122.368285
7116.698103 6433.887900
-9384.932433 -1089.771858
5747.394856 -4814.802482
-2403.450083 4460.934178
2404.797436 2218.171480
5720.855912 -4248.185668
-9228.883991 -6280.135657
734.133687 5983.611699
6953.590767 5323.949494
-3014.961955 -2094.863096
-2895.815166 -3687.434238
8268.675684 -3643.023041
4690.049086 -6170.197987
-6481.482026 -1360.648037
-6533.610207 -6169.278364
-7395.612539 4185.432814
3870.267634 4336.353265
490.637531 -1612.571367
5074.337778 -3316.469738
-8019.741928 1075.699092
1196.429500 5549.190327
-8511.005179 4742.889598
8534.917659 1494.034212
9076.594992 3520.165527
6704.059600 5510.717291
-1868.596648 -5987.081744
-7215.338874 3104.529498
6586.789923 -3010.590923
805.605609 -5997.154033
-6625.373632 -5020.946136
-7675.570888 2245.664475
-4678.288074 2886.565702
2431.542376 2261.985686
-8948.684688 2007.121944
6027.580667 132.908655
2515.135852 5307.517292
-4315.163222 -6067.237818
4657.799465 4878.507685
1818.157590 -1021.634525
3569.501912 906.285066
-2553.129524 2117.403349
8904.448125 5374.286092
-1039.089477 583.910248
656.306767 926.077847
-1940.845179 -1409.859164
-5914.155513 -6143.179138
-9209.236783 -2638.449273
1494.178663 -5909.316306
-1663.271663 1781.648398
-4157.249989 -2232.024906
-4557.498236 2475.362880
7782.413098 2103.002070
-3998.521177 -5056.217732
-3015.383391 1841.737681
-8541.578580 -5932.966171
-4423.047136 -3519.611997
-1978.385714 -3355.281548
1027.066811 4114.554688
1730.100354 -3470.694230
-8513.679486 141.817682
-7979.646313 3481.144283
5106.628967 2342.950042
-2283.141720 6063.800674
632.584002 -2444.318155
-4544.878555 -1824.284488
-2337.948723 1606.810325
318.509357 -6193.516438
8559.332456 957.497417
-1307.679972 -4311.640443
885.629672 -3672.564537
9258.763292 -2668.989798
-7091.408654 -5633.512884
7989.561976 -741.847709
6212.585696 6139.915975
-2316.030734 -3412.143997
8812.867523 1442.113224
5335.124939 -4790.491507
6391.504738 -5398.407456
4026.185592 159.049072
6025.895821 -5686.473539
-1216.614555 -5817.000187
6091.156219 -4207.167999
7381.621240 -5203.974904
8106.259332 5486.361364
-4200.312904 -2544.421524
9170.325967 -2979.289728
-3454.871215 -5787.855252
3195.709854 5024.600363
1799.135966 1322.631793
3535.507475 -1014.455186
9341.144905 4605.157102
1786.401924 2312.612928
-4572.092491 900.862345
-2567.480062 -16.293989
-1017.176795 3566.825780
4983.938755 3375.937149
3647.917857 -5432.149553
4743.269876 3199.049236
7379.327260 -2022.969073
798.410019 -6059.844930
-4663.852175 -6134.142858
-9198.696030 1535.147344
8452.469810 4864.512787
9029.207284 -3337.894246
8194.102105 2417.842228
-5818.876486 -630.421803
4153.139060 -4590.573107
-3804.726362 5096.896808
5049.032013 3683.580488
6390.599758 -2221.472998
-3204.127322 1045.262825
3398.236245 1216.787757
3938.846650 535.933812
-3650.674866 248.726085
-1814.068971 -608.474071
-4201.648561 1869.911820
7806.912322 -1745.405970
2406.742457 2107.717312
-7756.448305 -896.117987
7466.476030 -2984.280063
4361.022901 1278.775898
1718.337212 -2851.793020
-8125.179111 6286.626122
-1391.618552 -2655.104348
-8998.461198 2556.721592
-3612.883837 6138.929716
-8600.947721 5017.457169
8035.265014 210.154395
3789.024228 1366.070638
-4510.342830 12.236811
-6614.426140 -3461.192009
2262.922140 4161.641326
3473.005962 5065.884161
-3981.704872 -2333.950729
-1622.003060 -2025.757579
9296.213476 1958.305834
-5395.931749 2537.817713
5704.700342 1572.204939
-8456.616647 -2291.635674
4419.149332 1079.876363
3472.598009 3015.268051
-5050.397945 -1890.197796
-8301.602269 -5969.733416
7107.831669 -2237.404995
9177.229004 3105.513552
5542.520755 3000.548147
1452.058361 5767.610604
-4737.245856 3211.294958
-1168.649440 3889.318523
-5048.600711 455.563299
539.376378 -3624.250764
-8393.695309 -621.347768
-1779.478531 162.479254
2806.847591 -1436.143581
-5476.335505 -1622.320616
-7277.489007 -4289.330265
3240.503256 3151.757193
8026.693546 6368.398910
5666.346885 -879.250713
9398.487502 2124.878966
5262.772548 -3956.975258
-3905.224108 -3236.005389
-6392.580326 1999.429905
-8176.290152 -2534.785237
-3788.058459 177.398472
-4299.888306 1660.223435
9034.433783 -2578.004507
2468.976050 -3549.467642
-8841.561172 -6131.961044
-5003.794511 -6167.120375
8951.425354 3874.930729
8146.696426 -5240.539700
-3018.379242 -3153.729446
-4495.403910 -2284.371930
1373.454092 1580.127857
-4584.576259 5095.283458
-7376.974207 4811.643024
3898.318625 46.817148
-3845.943646 462.100792
-3428.410450 3496.812475
-9347.682489 3156.515488
7285.616606 2266.959081
-9172.208483 -6243.204535
5649.363739 -2861.496087
7307.180847 4525.940833
-225.092674 -5053.214397
4125.054195 -3638.292030
-4751.875307 5472.465126
-9379.187643 -3602.544035
5359.464091 507.429791
1612.567369 577.265553
-5907.105271 -900.012008
7245.222074 -710.408269
6326.969068 -3304.493341
-7388.154441 -4767.052452
-9338.206912 1529.312872
5626.923368 -2105.173954
-708.329847 1101.482583
2475.009504 1149.814833
-3114.619761 -1642.138254
5868.987856 5908.502966
-8872.742308 -4573.330796
8056.886180 -6078.179222
6389.494071 4690.228237
-8920.322547 6097.519650
-8149.109571 6173.822875
-5331.443270 3564.421358
1605.702159 -3369.041871
7110.645322 4770.250330
-2112.557435 -3805.601252
-1142.316536 -6249.784150
-8776.314495 -5855.782868
-8278.934691 6093.361674
627.614395 4004.444922
-4757.303508 4365.970809
-7676.507561 5253.880149
1094.909571 -4835.041448
-2667.997936 2710.913994
4632.894628 1114.211589
4168.399613 6122.307308
-8152.018891 -1107.369064
-2365.793515 -647.551968
6169.970461 151.746577
-3649.504888 -5869.881693
2852.749505 -2666.930119
8838.579191 -1456.451153
-4480.222733 5740.868078
-3126.732900 -2530.146392
2740.718843 -5818.011963
6147.141992 3477.086185
-5472.083206 4363.009799
2102.031107 -3701.738161
-8353.257397 -5940.488481
-431.062509 -1981.420389
3908.109815 6415.694353
5193.937035 5998.375382
4727.309582 -3509.554426
6626.784203 806.326293
3048.063029 -3773.024344
-8348.208607 -6027.356001
-1324.588142 -3312.269935
-5373.392128 4572.449709
-920.935036 5321.020058
-5696.151572 -1423.197216
9278.572676 -5205.757190
-8004.065827 4789.310945
929.425385 1565.887326
8823.955866 -361.069494
3561.527671 -4730.645527
-774.964555 -3978.629180
9432.878793 1567.286850
-2316.961193 4349.733499
8859.721997 -2728.841214
1882.898798 -166.690699
1453.064332 -283.696657
972.968095 703.210795
-168.810721 -5112.419504
2997.505140 -5539.719475
-2104.817230 3341.164491
-3285.058979 -3637.779576
-3846.078125 -3649.465486
190.042126 1219.116563
1475.332874 816.228396
1106.536728 -4348.618456
8102.591173 3093.155612
-1978.393996 -2692.755053
4407.518276 3642.024931
3637.637551 -762.058868
-7111.251975 4251.319848
3558.912744 -4440.863265
-1050.076925 -615.964208
6087.190885 5963.747091
-8752.675956 520.720316
759.387519 -5174.024462
577.229736 -6093.684461
9429.423354 -994.016865
-9038.097454 -4435.710746
-6645.907302 4497.121239
-2920.050326 6093.409574
-3748.998871 2072.508742
-457.717494 -5094.210434
6936.672600 5510.538906
6667.210207 5986.490238
-1856.382675 54.802347
-7301.207257 -6001.215458
1235.800810 -6015.259836
-3622.390394 -5734.120002
6305.408417 -3820.215463
5666.702366 636.734315
1806.674232 4527.893815
890.265026 -2234.516538
8521.396641 -3949.962230
-3459.888813 -5849.326692
-5228.258447 -666.381534
-5127.175549 800.254783
-4504.048954 -4806.262125
4112.727358 -828.687314
-3219.328362 -2974.995854
5487.421454 -5557.246626
-5228.275186 2125.880230
-3457.505521 -3716.478561
299.653518 -4350.287209
2680.392796 -261.798615
4382.036376 2619.707524
-3286.028242 5570.206753
8603.428687 -3953.985397
2229.830509 5303.114229
-3094.920240 -3344.205136
-4566.730844 -6048.822245
4344.348371 -3167.327525
-8460.681493 922.787755
3810.462096 -5322.686834
844.451711 2956.787620
-1241.502423 -502.298670
5146.217001 3704.856657
3256.402735 3127.038136
3774.855589 -1801.014062
-6370.814832 2536.580066
7474.799891 5869.605046
3728.402115 2384.795198
-6353.333928 3060.044337
6469.856787 -789.164080
3469.370895 6237.207729
-9364.680420 -1060.166947
-8910.555595 -3997.669635
9154.569822 4674.954460
-6923.353142 801.443189
-5781.597120 2903.109257
-89.490483 1554.956801
